Date,Mobility
15-02-2020,16002619.545109052
16-02-2020,16042206.382370649
17-02-2020,15791990.811481431
18-02-2020,15637774.273761358
19-02-2020,15460919.132583536
20-02-2020,15745632.940628232
21-02-2020,15247103.132078715
22-02-2020,15312447.689453239
23-02-2020,15629867.851296213
24-02-2020,16341597.646472095
25-02-2020,16099822.117373781
26-02-2020,15902065.531159539
27-02-2020,16212235.765021015
28-02-2020,16278893.311362844
29-02-2020,16444367.713232841
01-03-2020,16409390.581687467
02-03-2020,16341597.646472095
03-03-2020,16020169.548460685
04-03-2020,15957465.21335143
05-03-2020,16045024.204729676
06-03-2020,16265898.28879157
07-03-2020,16337644.43523952
08-03-2020,16521804.229334703
09-03-2020,16318480.148624439
10-03-2020,16081793.21963225
11-03-2020,16012263.125995535
12-03-2020,16172170.033369517
13-03-2020,16132583.196107922
14-03-2020,15423247.053837027
15-03-2020,15979624.922419291
16-03-2020,16049155.016056003
17-03-2020,15491641.758600192
18-03-2020,15395040.955883253
19-03-2020,15338026.990427913
20-03-2020,15368572.016350813
21-03-2020,15231782.606824486
22-03-2020,11624394.713428572
23-03-2020,15085225.92220928
24-03-2020,12699519.671496274
25-03-2020,11295470.118075376
26-03-2020,11390935.53191877
27-03-2020,11414175.904924314
28-03-2020,11230016.11082913
29-03-2020,11897371.762933435
30-03-2020,12013013.15806306
31-03-2020,11813519.41342748
01-04-2020,11767763.312122071
02-04-2020,12032177.444678139
03-04-2020,11965998.792726211
04-04-2020,11793698.63232875
05-04-2020,12329955.24456064
06-04-2020,12288685.154769061
07-04-2020,13219962.619753366
08-04-2020,13240986.939947672
09-04-2020,13335973.459401166
10-04-2020,13216132.283678683
11-04-2020,12857456.276374802
12-04-2020,13599375.897286082
13-04-2020,13640453.323608732
14-04-2020,13326329.878514681
15-04-2020,13665185.104719829
16-04-2020,13750528.043286838
17-04-2020,13800237.35582482
18-04-2020,13394068.088794194
19-04-2020,13972127.59109892
20-04-2020,14075909.352530822
21-04-2020,14144181.182136094
22-04-2020,14159515.132676492
23-04-2020,14247074.124054736
24-04-2020,14182632.630524144
25-04-2020,13722800.839722963
26-04-2020,14230851.354001073
27-04-2020,14426145.318043794
28-04-2020,14406858.156270824
29-04-2020,14021111.439886717
30-04-2020,14496633.200460305
01-05-2020,14328340.976231275
02-05-2020,14180238.977619156
03-05-2020,14809744.9508832
04-05-2020,15343771.265973182
05-05-2020,15258428.327406174
06-05-2020,15686579.703410905
07-05-2020,15867388.055821305
08-05-2020,15806899.773523288
09-05-2020,15312569.74556663
10-05-2020,15903747.145600513
11-05-2020,16143538.9469172
12-05-2020,15972374.17539329
13-05-2020,15945782.360702958
14-05-2020,16185341.836990036
15-05-2020,16280807.250833426
16-05-2020,16077962.064513063
17-05-2020,16485636.164935417
18-05-2020,16319135.824063588
19-05-2020,16446281.652703429
20-05-2020,16613493.21299477
21-05-2020,16241220.413571829
22-05-2020,16507850.598939132
23-05-2020,16313445.454409676
24-05-2020,13531582.96207071
25-05-2020,15783180.506127844
26-05-2020,16401004.445787918
27-05-2020,16087482.770241655
28-05-2020,16450713.7583259
29-05-2020,16165999.950281205
30-05-2020,16516714.810184076
31-05-2020,16140434.074592704
01-06-2020,16793522.195763625
02-06-2020,16559653.08913046
03-06-2020,16675418.17846248
04-06-2020,16730817.860654373
05-06-2020,16493597.31233642
06-06-2020,16334292.174510231
07-06-2020,17163346.61734572
08-06-2020,17187777.10416067
09-06-2020,17033560.5664406
10-06-2020,17004752.698939037
11-06-2020,16951691.944716267
12-06-2020,17195081.75707803
13-06-2020,16751719.30569079
14-06-2020,17640605.536340643
15-06-2020,17185438.176191546
16-06-2020,16723390.332579121
17-06-2020,16538751.644094042
18-06-2020,16523540.568711538
19-06-2020,16174385.26713625
20-06-2020,16085690.88688446
21-06-2020,15430030.693670297
22-06-2020,15847389.674628822
23-06-2020,15683529.556022268
24-06-2020,15477989.422500767
25-06-2020,15278618.553023081
26-06-2020,15288139.258751674
27-06-2020,15179678.822337013
28-06-2020,15623588.318336181
29-06-2020,15518055.154152265
30-06-2020,15559858.044225102
01-07-2020,15685266.714443605
02-07-2020,15732759.974170351
03-07-2020,15609567.356763083
04-07-2020,15524224.418196075
05-07-2020,13384137.457942236
06-07-2020,16088084.539789448
07-07-2020,15766656.44177804
08-07-2020,15376956.514161358
09-07-2020,15709642.4763227
10-07-2020,15749708.207974195
11-07-2020,15367312.93327487
12-07-2020,13560869.723962171
13-07-2020,16540488.802515382
14-07-2020,16108384.215278074
15-07-2020,15457265.577558102
16-07-2020,15660712.533426257
17-07-2020,15651547.84692967
18-07-2020,15197406.4257824
19-07-2020,13659686.579490347
20-07-2020,15868468.719758993
21-07-2020,15849181.557986021
22-07-2020,16028731.64636498
23-07-2020,16038375.227251463
24-07-2020,16274460.386695867
25-07-2020,16030468.804786317
26-07-2020,13900860.33904087
27-07-2020,16707700.36280672
28-07-2020,16367107.978180232
29-07-2020,16412864.07948564
30-07-2020,16809991.53517757
31-07-2020,15652026.741319565
01-08-2020,15556561.327476177
02-08-2020,15898179.651104493
03-08-2020,16561390.247551799
04-08-2020,15993098.020335956
05-08-2020,15155303.06045792
06-08-2020,15280711.730676427
07-08-2020,15212795.920303158
08-08-2020,14849086.037829017
09-08-2020,15572620.741766758
10-08-2020,15672627.71110434
11-08-2020,15309396.7230201
12-08-2020,15355152.824325508
13-08-2020,15313349.934252672
14-08-2020,15556739.746614432
15-08-2020,15287469.338981852
16-08-2020,15977531.744765945
17-08-2020,
18-08-2020,
19-08-2020,
20-08-2020,
21-08-2020,
22-08-2020,
23-08-2020,
24-08-2020,
25-08-2020,
26-08-2020,
27-08-2020,
28-08-2020,
29-08-2020,
30-08-2020,
31-08-2020,
01-09-2020,
02-09-2020,
03-09-2020,
04-09-2020,
05-09-2020,
06-09-2020,
07-09-2020,
08-09-2020,
09-09-2020,
10-09-2020,
11-09-2020,16028431.171113335
12-09-2020,15744373.85755229
13-09-2020,16231221.63249784
14-09-2020,16266253.488979075
15-09-2020,16229539.199012361
16-09-2020,16520422.27110087
17-09-2020,15781799.366938513
18-09-2020,15832411.743320432
19-09-2020,16049934.385697542
20-09-2020,16374180.306067977
21-09-2020,16361240.008432569
22-09-2020,16355070.744388757
23-09-2020,16725729.26054825
24-09-2020,16592537.04302249
25-09-2020,16725852.135706143
26-09-2020,16934866.586070318
27-09-2020,17368530.73163521
28-09-2020,15197529.30094029
29-09-2020,16478386.23695392
30-09-2020,16048853.721759856
01-10-2020,15814861.7399688
02-10-2020,16091299.68103017
03-10-2020,15676458.047179025
04-10-2020,16344046.024312941
05-10-2020,15942486.462998537
06-10-2020,15871875.70542414
07-10-2020,16094486.947907371
08-10-2020,16457840.811149506
09-10-2020,16159653.08614364
10-10-2020,16024121.940648757
11-10-2020,17124416.274567768
12-10-2020,16864611.847727925
13-10-2020,16564085.194752932
14-10-2020,16736987.12469818
15-10-2020,16771485.361853661
16-10-2020,16965288.736835327
17-10-2020,17104773.09356279
18-10-2020,17529450.152724847
19-10-2020,17172566.028778166
20-10-2020,16742677.494352093
21-10-2020,16372018.978192601
22-10-2020,16459455.09441295
23-10-2020,16102393.370372519
24-10-2020,16591566.648001026
25-10-2020,16715183.434862332
26-10-2020,15913363.875914657
27-10-2020,16144128.110223325
28-10-2020,16173537.747272678
29-10-2020,16266787.108304834
30-10-2020,15670945.277618866
31-10-2020,15879426.108657278
01-11-2020,16664995.227934452
02-11-2020,16151623.788520603
03-11-2020,16075322.66129229
04-11-2020,16033519.771219458
05-11-2020,15898590.39527236
06-11-2020,16191689.5201721
07-11-2020,16541925.485685077
08-11-2020,16692065.93701468
09-11-2020,16375849.314267283
10-11-2020,16213726.354082067
11-11-2020,16259482.455387475
12-11-2020,16409745.781874971
13-11-2020,16305238.556692883
14-11-2020,15715620.714986585
15-11-2020,16214328.123629857
16-11-2020,15452040.67700792
17-11-2020,16219293.848578086
18-11-2020,16244148.504847078
19-11-2020,16156589.513468834
20-11-2020,16240797.063162293
21-11-2020,16726564.174170155
22-11-2020,16728178.457433604
23-11-2020,16567313.761279827
24-11-2020,16552102.685897319
25-11-2020,16933896.19104885
26-11-2020,16771896.106021529
27-11-2020,16842985.757985827
28-11-2020,16831727.89383589
29-11-2020,17243409.93042668
30-11-2020,17055953.41958257
01-12-2020,16909643.30432765
02-12-2020,16991511.926051985
03-12-2020,16796271.86790062
04-12-2020,16948094.752715703
05-12-2020,16674761.68397883
06-12-2020,17519081.927132677
07-12-2020,17141775.25253948
08-12-2020,16493474.43717853
09-12-2020,17550283.447539233
10-12-2020,18042397.422684655
11-12-2020,18126126.07798822
12-12-2020,17903637.710662875
13-12-2020,18729997.206297226
14-12-2020,18211469.016555224
15-12-2020,18082586.029494043
16-12-2020,18029525.275271278
17-12-2020,17944305.21186216
18-12-2020,18134634.270001154
19-12-2020,18275855.785149954
20-12-2020,18690410.369035624
21-12-2020,18073065.32376545
22-12-2020,17731269.400043383
23-12-2020,17987722.385198444
24-12-2020,18244230.095289364
25-12-2020,18503063.30806324
26-12-2020,17829073.741855904
27-12-2020,17944661.23109417
28-12-2020,18367901.607086528
29-12-2020,18148764.68144597
30-12-2020,17979337.068343397
31-12-2020,18889958.83860707
